# Photon E [eV]	StS norm sum
5.300270000000000437e+02	-3.660334447377073652e-04
5.300280000645744849e+02	-3.634898335664570046e-04
5.300290001291489261e+02	-3.609462223950790877e-04
5.300300001937233674e+02	-3.584026112237866601e-04
5.300310002582978086e+02	-3.558590000524393176e-04
5.300320003228723635e+02	-3.533153888809752608e-04
5.300330003874468048e+02	-3.507717777095410738e-04
5.300340004520212460e+02	-3.482281665381342086e-04
5.300350005165956873e+02	-3.456845553669260778e-04
5.300360005811701285e+02	-3.431409441953556607e-04
5.300370006457445697e+02	-3.405973330241361999e-04
5.300380007103190110e+02	-3.380537218527586625e-04
5.300390007748934522e+02	-3.355101106814658012e-04
5.300400008394678935e+02	-3.329664995101207356e-04
5.300410009040424484e+02	-3.304228883385004994e-04
5.300420009686168896e+02	-3.278792771671439955e-04
5.300430010331913309e+02	-3.253356659958136208e-04
5.300440010977657721e+02	-3.227920548244994550e-04
5.300450011623402133e+02	-3.202484436531206164e-04
5.300460012269146546e+02	-3.177048324817588541e-04
5.300470012914890958e+02	-3.151612213104464772e-04
5.300480013560635371e+02	-3.126176101391026584e-04
5.300490014206380920e+02	-3.100739989676388727e-04
5.300500014852125332e+02	-3.075303877961796406e-04
5.300510015497869745e+02	-3.049867766248416765e-04
5.300520016143614157e+02	-3.023865645135407590e-04
5.300530016789358569e+02	-2.993991159962169153e-04
5.300540017435102982e+02	-2.964116674791971362e-04
5.300550018080847394e+02	-2.934242189620502885e-04
5.300560018726591807e+02	-2.904367704449882796e-04
5.300570019372336219e+02	-2.874493219278720607e-04
5.300580020018081768e+02	-2.844618734106386937e-04
5.300590020663826181e+02	-2.814744248934352507e-04
5.300600021309570593e+02	-2.784869763762092562e-04
5.300610021955315005e+02	-2.754995278592316525e-04
5.300620022601059418e+02	-2.725120793418920879e-04
5.300630023246803830e+02	-2.695246308249034254e-04
5.300640023892548243e+02	-2.665371823077655224e-04
5.300650024538292655e+02	-2.635497337906385156e-04
5.300660025184037067e+02	-2.605622852735868609e-04
5.300670025829782617e+02	-2.575748367561913514e-04
5.300680026475527029e+02	-2.545873882390655915e-04
5.300690027121271442e+02	-2.515999397219154912e-04
5.300700027767015854e+02	-2.486124912048319610e-04
5.300710028412760266e+02	-2.456250426876838123e-04
5.300720029058504679e+02	-2.426375941705533903e-04
5.300730029704249091e+02	-2.396501456534720013e-04
5.300740030349993503e+02	-2.366626971363587639e-04
5.300750030995739053e+02	-2.336752486191259390e-04
5.300760031641483465e+02	-2.306878001018975322e-04
5.300770032287227878e+02	-2.282456907863206089e-04
5.300780032932972290e+02	-2.278337394115977988e-04
5.300790033578716702e+02	-2.275819704256688066e-04
5.300800034224461115e+02	-2.273302014400437976e-04
5.300810034870205527e+02	-2.270784324543110731e-04
5.300820035515949940e+02	-2.268266634686436718e-04
5.300830036161694352e+02	-2.265748944829307340e-04
5.300840036807439901e+02	-2.263231254973200094e-04
5.300850037453184314e+02	-2.260713565115676880e-04
5.300860038098928726e+02	-2.258195875257447307e-04
5.300870038744673138e+02	-2.255678185401537657e-04
5.300880039390417551e+02	-2.253160495542093778e-04
5.300890040036161963e+02	-2.250642805686155397e-04
5.300900040681906376e+02	-2.248125115828914888e-04
5.300910041327650788e+02	-2.245607425971592522e-04
5.300920041973395200e+02	-2.243089736115025303e-04
5.300930042619140750e+02	-2.240572046257941190e-04
5.300940043264885162e+02	-2.238054356400633190e-04
5.300950043910629574e+02	-2.235536666543080973e-04
5.300960044556373987e+02	-2.233018976685630943e-04
5.300970045202118399e+02	-2.230501286828662298e-04
5.300980045847862812e+02	-2.227983596971306051e-04
5.300990046493607224e+02	-2.225465907114629869e-04
5.301000047139351636e+02	-2.222948217257446823e-04
5.301010047785097186e+02	-2.220430527401988743e-04
5.301020048430841598e+02	-2.217912837543742095e-04
5.301030049076586010e+02	-2.215395147685464004e-04
5.301040049722330423e+02	-2.212877457829394976e-04
5.301050050368074835e+02	-2.210359767971502591e-04
5.301060051013819248e+02	-2.207842078114380260e-04
5.301070051659563660e+02	-2.205324388257051660e-04
5.301080052305308072e+02	-2.202806698400346205e-04
5.301090052951052485e+02	-2.200289008543248540e-04
5.301100053596798034e+02	-2.197771318687140210e-04
5.301110054242542446e+02	-2.195086486901578907e-04
5.301120054888286859e+02	-2.190382504163192580e-04
5.301130055534031271e+02	-2.192273933460049987e-04
5.301140056179775684e+02	-2.194195285156563639e-04
5.301150056825520096e+02	-2.196549645909041753e-04
5.301160057471264508e+02	-2.198904006661485172e-04
5.301170058117008921e+02	-2.201258367413234159e-04
5.301180058762753333e+02	-2.203612728165787896e-04
5.301190059408498882e+02	-2.205967088917776221e-04
5.301200060054243295e+02	-2.208321449669587279e-04
5.301210060699987707e+02	-2.210675810421195591e-04
5.301220061345732120e+02	-2.213030171172426059e-04
5.301230061991476532e+02	-2.215384531925381221e-04
5.301240062637220944e+02	-2.217738892677091449e-04
5.301250063282965357e+02	-2.220093253429537036e-04
5.301260063928709769e+02	-2.222447614181424530e-04
5.301270064574455319e+02	-2.224801974935088490e-04
5.301280065220199731e+02	-2.227156335685913737e-04
5.301290065865944143e+02	-2.229510696436699411e-04
5.301300066511688556e+02	-2.231865057189244474e-04
5.301310067157432968e+02	-2.234219417940633506e-04
5.301320067803177380e+02	-2.236573778693430646e-04
5.301330068448921793e+02	-2.238928139445260407e-04
5.301340069094666205e+02	-2.242496237664116921e-04
5.301350069740410618e+02	-2.250854160266065605e-04
5.301360070386156167e+02	-2.259212082868382646e-04
5.301370071031900579e+02	-2.267570005469341182e-04
5.301380071677644992e+02	-2.275927928069539151e-04
5.301390072323389404e+02	-2.284285850671810385e-04
5.301400072969133817e+02	-2.292643773272360990e-04
5.301410073614878229e+02	-2.301001695874196104e-04
5.301420074260622641e+02	-2.309359618475999775e-04
5.301430074906367054e+02	-2.317717541077103053e-04
5.301440075552111466e+02	-2.326075463679016771e-04
5.301450076197857015e+02	-2.334433386280358573e-04
5.301460076843601428e+02	-2.342791308881531781e-04
5.301470077489345840e+02	-2.351149231482494925e-04
5.301480078135090253e+02	-2.359507154083766525e-04
5.301490078780834665e+02	-2.367865076685596217e-04
5.301500079426579077e+02	-2.376222999287147270e-04
5.301510080072323490e+02	-2.384580921888951755e-04
5.301520080718067902e+02	-2.392938844490281631e-04
5.301530081363813451e+02	-2.401296767092597859e-04
5.301540082009557864e+02	-2.409654689693398373e-04
5.301550082655302276e+02	-2.418012612293545926e-04
5.301560083301046689e+02	-2.426370534895446634e-04
5.301570083946791101e+02	-2.434728457496876256e-04
5.301580084592535513e+02	-2.443086380099030938e-04
5.301590085238279926e+02	-2.451444302700215802e-04
5.301600085884024338e+02	-2.459802225301286824e-04
5.301610086529768751e+02	-2.468160147903234966e-04
5.301620087175514300e+02	-2.476518070505548483e-04
5.301630087821258712e+02	-2.482156087485384833e-04
5.301640088467003125e+02	-2.474783975266684074e-04
5.301650089112747537e+02	-2.467411863049437230e-04
5.301660089758491949e+02	-2.460039750830229064e-04
5.301670090404236362e+02	-2.452373822061681193e-04
5.301680091049980774e+02	-2.441739764350143679e-04
5.301690091695725187e+02	-2.429313870046754533e-04
5.301700092341469599e+02	-2.416887975742391503e-04
5.301710092987215148e+02	-2.404462081439329515e-04
5.301720093632959561e+02	-2.392036187135308280e-04
5.301730094278703973e+02	-2.379610292830611586e-04
5.301740094924448385e+02	-2.367184398527042463e-04
5.301750095570192798e+02	-2.354758504222372875e-04
5.301760096215937210e+02	-2.342332609919432589e-04
5.301770096861681623e+02	-2.329906715614955988e-04
5.301780097507426035e+02	-2.317480821311797778e-04
5.301790098153171584e+02	-2.305054927009517500e-04
5.301800098798915997e+02	-2.292629032704146703e-04
5.301810099444660409e+02	-2.280203138399802918e-04
5.301820100090404821e+02	-2.267777244095430130e-04
5.301830100736149234e+02	-2.255351349792105223e-04
5.301840101381893646e+02	-2.242925455488841845e-04
5.301850102027638059e+02	-2.230499561184366600e-04
5.301860102673382471e+02	-2.218073666880944928e-04
5.301870103319126883e+02	-2.205647772576614695e-04
5.301880103964872433e+02	-2.193221878274442566e-04
5.301890104610616845e+02	-2.180795983969124625e-04
5.301900105256361257e+02	-2.168370089664704674e-04
5.301910105902105670e+02	-2.155944195362150093e-04
5.301920106547850082e+02	-2.143518301056844891e-04
5.301930107193594495e+02	-2.131092406753657136e-04
5.301940107839338907e+02	-2.118666512449180806e-04
5.301950108485083319e+02	-2.106240618145794100e-04
5.301960109130827732e+02	-2.093814723841430528e-04
5.301970109776573281e+02	-2.081388829538369082e-04
5.301980110422317694e+02	-2.068962935234346491e-04
5.301990111068062106e+02	-2.056537040929650882e-04
5.302000111713806518e+02	-2.044111146626082572e-04
5.302010112359550931e+02	-2.031685252321410544e-04
5.302020113005295343e+02	-2.019862380401884453e-04
5.302030113651039755e+02	-2.012165097562389757e-04
5.302040114296784168e+02	-2.004467814721953703e-04
5.302050114942529717e+02	-1.996770531883567063e-04
5.302060115588274130e+02	-1.989073249042092343e-04
5.302070116234018542e+02	-1.981375966201642466e-04
5.302080116879762954e+02	-1.973678683361160334e-04
5.302090117525507367e+02	-1.965981400521733672e-04
5.302100118171251779e+02	-1.958284117682900340e-04
5.302110118816996192e+02	-1.950586834842377008e-04
5.302120119462740604e+02	-1.942889552002794763e-04
5.302130120108485016e+02	-1.935192269162360336e-04
5.302140120754230566e+02	-1.927494986324082386e-04
5.302150121399974978e+02	-1.919797703482654830e-04
5.302160122045719390e+02	-1.912100420642133937e-04
5.302170122691463803e+02	-1.904403137803474348e-04
5.302180123337208215e+02	-1.896705854962062513e-04
5.302190123982952628e+02	-1.889008572123307243e-04
5.302200124628697040e+02	-1.881311289282725364e-04
5.302210125274441452e+02	-1.873614006443323368e-04
5.302220125920185865e+02	-1.865916723603936009e-04
5.302230126565931414e+02	-1.858219440763597262e-04
5.302240127211675826e+02	-1.850522157923469664e-04
5.302250127857420239e+02	-1.842824875082670674e-04
5.302260128503164651e+02	-1.835127592243411521e-04
5.302270129148909064e+02	-1.823119762095077310e-04
5.302280129794653476e+02	-1.796095001802860589e-04
5.302290130440397888e+02	-1.772133378715803355e-04
5.302300131086142301e+02	-1.748171755627808558e-04
5.302310131731887850e+02	-1.724210132540009187e-04
5.302320132377632262e+02	-1.700248509450969761e-04
5.302330133023376675e+02	-1.676286886362959242e-04
5.302340133669121087e+02	-1.652325263274914842e-04
5.302350134314865500e+02	-1.628363640187925642e-04
5.302360134960609912e+02	-1.604402017101532753e-04
5.302370135606354324e+02	-1.580440394013362315e-04
5.302380136252098737e+02	-1.556478770926299389e-04
5.302390136897843149e+02	-1.532517147838303778e-04
5.302400137543588698e+02	-1.508555524750702275e-04
5.302410138189333111e+02	-1.484593901662795840e-04
5.302420138835077523e+02	-1.460632278573543096e-04
5.302430139480821936e+02	-1.436670655487321240e-04
5.302440140126566348e+02	-1.412709032398350661e-04
5.302450140772310760e+02	-1.388747409312031497e-04
5.302460141418055173e+02	-1.364785786223887622e-04
5.302470142063799585e+02	-1.340824163136922003e-04
5.302480142709543998e+02	-1.316862540049972105e-04
5.302490143355289547e+02	-1.292900916960223068e-04
5.302500144001033959e+02	-1.268939293872535100e-04
5.302510144646778372e+02	-1.244977670784173571e-04
5.302520145292522784e+02	-1.221016047697438887e-04
5.302530145938267196e+02	-1.197054424610306979e-04
5.302540146584011609e+02	-1.173092801522617384e-04
5.302550147229756021e+02	-1.149131178435556898e-04
5.302560147875500434e+02	-1.125169555347419527e-04
5.302570148521245983e+02	-1.101207932259763136e-04
5.302580149166990395e+02	-1.077246309170723303e-04
5.302590149812734808e+02	-1.053284686082798979e-04
5.302600150458479220e+02	-1.029323062995840136e-04
5.302610151104223633e+02	-1.005361439907677965e-04
5.302620151749968045e+02	-9.813998168212857535e-05
5.302630152395712457e+02	-9.576132206951718082e-05
5.302640153041456870e+02	-9.360290726852825221e-05
5.302650153687201282e+02	-9.124516788647846677e-05
5.302660154332946831e+02	-8.888742850443686705e-05
5.302670154978691244e+02	-8.652968912236489612e-05
5.302680155624435656e+02	-8.406943384207477086e-05
5.302690156270180069e+02	-8.118088078136696795e-05
5.302700156915924481e+02	-7.829232772035717408e-05
5.302710157561668893e+02	-7.540377465964862578e-05
5.302720158207413306e+02	-7.251522159885698694e-05
5.302730158853157718e+02	-6.962666853795789011e-05
5.302740159498902131e+02	-6.673811547720881975e-05
5.302750160144647680e+02	-6.384956241618563598e-05
5.302760160790392092e+02	-6.096100935530941582e-05
5.302770161436136505e+02	-5.807245629431158883e-05
5.302780162081880917e+02	-5.518390323355300460e-05
5.302790162727625329e+02	-5.229535017272690845e-05
5.302800163373369742e+02	-4.940679711187245365e-05
5.302810164019114154e+02	-4.651824405108083513e-05
5.302820164664858567e+02	-4.362969099018180607e-05
5.302830165310604116e+02	-4.074113792936179501e-05
5.302840165956348528e+02	-3.785258486831203473e-05
5.302850166602092941e+02	-3.496403180743399175e-05
5.302860167247837353e+02	-3.207547874665248343e-05
5.302870167893581765e+02	-2.918692568572401827e-05
5.302880168539326178e+02	-2.629837262499902737e-05
5.302890169185070590e+02	-2.351944644156267624e-05
5.302900169830815003e+02	-2.114756758975534654e-05
5.302910170476559415e+02	-1.877568873798538793e-05
5.302920171122304964e+02	-1.640380988593779564e-05
5.302930171768049377e+02	-1.403193103403749898e-05
5.302940172413793789e+02	-1.166005218200212768e-05
5.302950173059538201e+02	-9.288173330269885758e-06
5.302960173705282614e+02	-6.916294478294567400e-06
5.302970174351027026e+02	-4.544415626561599567e-06
5.302980174996771439e+02	-2.172536774745570412e-06
5.302990175642515851e+02	1.993420771777486999e-07
5.303000176288260263e+02	2.571220928951361303e-06
5.303010176934005813e+02	4.943099780998844751e-06
5.303020177579750225e+02	7.314978632899470051e-06
5.303030178225494637e+02	9.686857484921752151e-06
5.303040178871239050e+02	1.205873633667392815e-05
5.303050179516983462e+02	1.443061518850238455e-05
5.303060180162727875e+02	1.680249404037538133e-05
5.303070180808472287e+02	1.917437289219124235e-05
5.303080181454216699e+02	2.154625174411482224e-05
5.303090182099962249e+02	2.391813059595041235e-05
5.303100182745706661e+02	2.629000944791640826e-05
5.303110183391451073e+02	2.866188829993579436e-05
5.303120184037195486e+02	3.102668700109430223e-05
5.303130184682939898e+02	3.332561492966294573e-05
5.303140185328684311e+02	3.574169439295803272e-05
5.303150185974428723e+02	3.926569039717281906e-05
5.303160186620173135e+02	4.278968640126771974e-05
5.303170187265917548e+02	4.631368240531691453e-05
5.303180187911663097e+02	4.953680426597623375e-05
5.303190188557407510e+02	5.141742354116653408e-05
5.303200189203151922e+02	5.329804281628141460e-05
5.303210189848896334e+02	5.517866209142657146e-05
5.303220190494640747e+02	5.705928136649180907e-05
5.303230191140385159e+02	5.893990064151273669e-05
5.303240191786129571e+02	6.082051991660242983e-05
5.303250192431873984e+02	6.270113919162130425e-05
5.303260193077618396e+02	6.458175846666861864e-05
5.303270193723363946e+02	6.646237774181142414e-05
5.303280194369108358e+02	6.834299701698553597e-05
5.303290195014852770e+02	7.022361629217326810e-05
5.303300195660597183e+02	7.210423556727709653e-05
5.303310196306341595e+02	7.398485484237954260e-05
5.303320196952086008e+02	7.586547411734783221e-05
5.303330197597830420e+02	7.774609339243772864e-05
5.303340198243574832e+02	7.962671266745640654e-05
5.303350198889320382e+02	8.150733194247192670e-05
5.303360199535064794e+02	8.338795121781403567e-05
5.303370200180809206e+02	8.526857049289662729e-05
5.303380200826553619e+02	8.714918976800838395e-05
5.303390201472298031e+02	8.902980904313735231e-05
5.303400202118042444e+02	9.091042831816006887e-05
5.303410202763786856e+02	9.279104759325260804e-05
5.303420203409531268e+02	9.467166686827220752e-05
5.303430204055275681e+02	9.655228614331609312e-05
5.303440204701021230e+02	9.843290541845883086e-05
5.303450205346765642e+02	1.003135246936490295e-04
5.303460205992510055e+02	1.021941439687640117e-04
5.303470206638254467e+02	1.040747632439086468e-04
5.303480207283998880e+02	1.059553825190496498e-04
5.303490207929743292e+02	1.078360017939951034e-04
5.303500208575487704e+02	1.097166210690850540e-04
5.303510209221232117e+02	1.115972403441039488e-04
5.303520209866976529e+02	1.134778596191512361e-04
5.303530210512722078e+02	1.153584788942941093e-04
5.303540211158466491e+02	1.172390981694677739e-04
5.303550211804210903e+02	1.191464345398298195e-04
5.303560212449955316e+02	1.212365564238163541e-04
5.303570213095699728e+02	1.233266783078019264e-04
5.303580213741444140e+02	1.254168001916533017e-04
5.303590214387188553e+02	1.275069220756253486e-04
5.303600215032932965e+02	1.295970439595974227e-04
5.303610215678677378e+02	1.316871658434281981e-04
5.303620216324422927e+02	1.337772877276510481e-04
5.303630216970167339e+02	1.358674096116403609e-04
5.303640217615911752e+02	1.379575314956351490e-04
5.303650218261656164e+02	1.400476533796356563e-04
5.303660218907400576e+02	1.421377752635525715e-04
5.303670219553144989e+02	1.442278971475281692e-04
5.303680220198889401e+02	1.463180190314306646e-04
5.303690220844633814e+02	1.484081409153575816e-04
5.303700221490379363e+02	1.504982627993831611e-04
5.303710222136123775e+02	1.525883846834563370e-04
5.303720222781868188e+02	1.546785065674777151e-04
5.303730223427612600e+02	1.567652725498875331e-04
5.303740224073357012e+02	1.587506104654424479e-04
5.303750224719101425e+02	1.607359483808017185e-04
5.303760225364845837e+02	1.627212862962935057e-04
5.303770226010590250e+02	1.644980234326389227e-04
5.303780226656334662e+02	1.655824689146047108e-04
5.303790227302080211e+02	1.666669143966343584e-04
5.303800227947824624e+02	1.677513598786814345e-04
5.303810228593569036e+02	1.688358053607883315e-04
5.303820229239313448e+02	1.699202508428109860e-04
5.303830229885057861e+02	1.710046963248322853e-04
5.303840230530802273e+02	1.720891418067197398e-04
5.303850231176546686e+02	1.731735872887162108e-04
5.303860231822291098e+02	1.742580327707242557e-04
5.303870232468035510e+02	1.753424782526203296e-04
5.303880233113781060e+02	1.764269237347475283e-04
5.303890233759525472e+02	1.775113692167731372e-04
5.303900234405269885e+02	1.785958146988039232e-04
5.303910235051014297e+02	1.796802601808404284e-04
5.303920235696758709e+02	1.807647056627935585e-04
5.303930236342503122e+02	1.818491511448050457e-04
5.303940236988247534e+02	1.829335966267318025e-04
5.303950237633991946e+02	1.840180421086946090e-04
5.303960238279737496e+02	1.851024875906541359e-04
5.303970238925481908e+02	1.861869330727627405e-04
5.303980239571226321e+02	1.872713785548905626e-04
5.303990240216970733e+02	1.883558240368845671e-04
5.304000240862715145e+02	1.894402695189446536e-04
5.304010241508459558e+02	1.905247150008091501e-04
5.304020242154203970e+02	1.916091604828059193e-04
5.304030242799948383e+02	1.926936059647438705e-04
5.304040243445692795e+02	1.937780514467096857e-04
5.304050244091438344e+02	1.948624969287394689e-04
5.304060244737182757e+02	1.959469424107864366e-04
5.304070245382927169e+02	1.970313878928849039e-04
5.304080246028671581e+02	1.978903163233917874e-04
5.304090246674415994e+02	1.978592771115959760e-04
5.304100247320160406e+02	1.978838465621574950e-04
5.304110247965904819e+02	1.981828581227841016e-04
5.304120248611649231e+02	1.983915975877148996e-04
5.304130249257393643e+02	1.986003370525340247e-04
5.304140249903139193e+02	1.987996205966736788e-04
5.304150250548883605e+02	1.988593836169231816e-04
5.304160251194628017e+02	1.989191466372000876e-04
5.304170251840372430e+02	1.989789096575190336e-04
5.304180252486116842e+02	1.990386726776260994e-04
5.304190253131861255e+02	1.990984356978619954e-04
