# Photon E [eV]	StS norm sum
5.300220000000000482e+02	8.215096653598453970e-05
5.300230000645515247e+02	8.241482060820318895e-05
5.300240001291031149e+02	8.270812179842335196e-05
5.300250001936545914e+02	8.324599218980669390e-05
5.300260002582061816e+02	8.350495814829753843e-05
5.300270003227576581e+02	8.376392410657464605e-05
5.300280003873092483e+02	8.404613528050195760e-05
5.300290004518607248e+02	8.454079134027820449e-05
5.300300005164123149e+02	8.503544740002097664e-05
5.300310005809637914e+02	8.553010345988375641e-05
5.300320006455153816e+02	8.602475951962632527e-05
5.300330007100668581e+02	8.651941557945727016e-05
5.300340007746183346e+02	8.701407163925886027e-05
5.300350008391699248e+02	8.750872769908705400e-05
5.300360009037214013e+02	8.800338375885138821e-05
5.300370009682729915e+02	8.849803981874474249e-05
5.300380010328244680e+02	8.899269587843788528e-05
5.300390010973760582e+02	8.948735193829478326e-05
5.300400011619275347e+02	8.998200799805952405e-05
5.300410012264791249e+02	9.047666405780226909e-05
5.300420012910306014e+02	9.097132011766471005e-05
5.300430013555821915e+02	9.146597617740771259e-05
5.300440014201336680e+02	9.196063223723844064e-05
5.300450014846851445e+02	9.245528829704022049e-05
5.300460015492367347e+02	9.294994435686819738e-05
5.300470016137882112e+02	9.344460041663281620e-05
5.300480016783398014e+02	9.393925647652577745e-05
5.300490017428912779e+02	9.443391253621866274e-05
5.300500018074428681e+02	9.492856859609170178e-05
5.300510018719943446e+02	9.542322465587575492e-05
5.300520019365459348e+02	9.591788071562263348e-05
5.300530020010974113e+02	9.641253677547169810e-05
5.300540020656490015e+02	9.690719283521302013e-05
5.300550021302004779e+02	9.740184889501924521e-05
5.300560021947519544e+02	9.789650495482125545e-05
5.300570022593035446e+02	9.839116101464954404e-05
5.300580023238550211e+02	9.888581707441376984e-05
5.300590023884066113e+02	9.938047313430664977e-05
5.300600024529580878e+02	9.987512919400011783e-05
5.300610025175096780e+02	1.003615949012495696e-04
5.300620025820611545e+02	1.005969964889245357e-04
5.300630026466127447e+02	1.008890301266677239e-04
5.300640027111642212e+02	1.011810637644896659e-04
5.300650027757158114e+02	1.014730974022281650e-04
5.300660028402672879e+02	1.017651310400087447e-04
5.300670029048187644e+02	1.020470574166341851e-04
5.300680029693703545e+02	1.022700181502399322e-04
5.300690030339218310e+02	1.024434495428505035e-04
5.300700030984734212e+02	1.025000178907777785e-04
5.300710031630248977e+02	1.025565862384565543e-04
5.300720032275764879e+02	1.026131545863631482e-04
5.300730032921279644e+02	1.026697229341328750e-04
5.300740033566795546e+02	1.027262912819145823e-04
5.300750034212310311e+02	1.027828596297622091e-04
5.300760034857826213e+02	1.028394279775394170e-04
5.300770035503340978e+02	1.028959963253457628e-04
5.300780036148855743e+02	1.029525646731917362e-04
5.300790036794371645e+02	1.030091330210709133e-04
5.300800037439886410e+02	1.030657013688050376e-04
5.300810038085402311e+02	1.031222697166774113e-04
5.300820038730917076e+02	1.031788380644110885e-04
5.300830039376432978e+02	1.032354064123436625e-04
5.300840040021947743e+02	1.032882291994660515e-04
5.300850040667463645e+02	1.033162955885464084e-04
5.300860041312978410e+02	1.033443619776432858e-04
5.300870041958494312e+02	1.033724283666706523e-04
5.300880042604009077e+02	1.034004947557259641e-04
5.300890043249524979e+02	1.034285611448106985e-04
5.300900043895039744e+02	1.034566275339506459e-04
5.300910044540554509e+02	1.034846939229346714e-04
5.300920045186070411e+02	1.035127603120561602e-04
5.300930045831585176e+02	1.030350153697896613e-04
5.300940046477101077e+02	1.004562015023884936e-04
5.300950047122615842e+02	9.787738763501780553e-05
5.300960047768131744e+02	9.529857376750054687e-05
5.300970048413646509e+02	9.271975990029664974e-05
5.300980049059162411e+02	9.014094603271309211e-05
5.300990049704677176e+02	8.756213216544427838e-05
5.301000050350193078e+02	8.498331829792220857e-05
5.301010050995707843e+02	8.240450443070520615e-05
5.301020051641222608e+02	7.982569056315516392e-05
5.301030052286738510e+02	7.724687669597505148e-05
5.301040052932253275e+02	7.466806282863917984e-05
5.301050053577769177e+02	7.208924896125746000e-05
5.301060054223283942e+02	6.951043509388671771e-05
5.301070054868799843e+02	6.693162122636876787e-05
5.301080055514314608e+02	6.435280735916553481e-05
5.301090056159830510e+02	6.177399349159452683e-05
5.301100056805345275e+02	5.919517962434936225e-05
5.301110057450861177e+02	5.661636575682715014e-05
5.301120058096375942e+02	5.403755188960980213e-05
5.301130058741890707e+02	5.145873802204766427e-05
5.301140059387406609e+02	4.887992415484464128e-05
5.301150060032921374e+02	4.630111028750806491e-05
5.301160060678437276e+02	4.372229642012666356e-05
5.301170061323952041e+02	4.114348255275594160e-05
5.301180061969467943e+02	3.856466868523822215e-05
5.301190062614982708e+02	3.598585481803451475e-05
5.301200063260498609e+02	3.340704095046379815e-05
5.301210063906013374e+02	3.082822708321844384e-05
5.301220064551529276e+02	2.824941321569626222e-05
5.301230065197044041e+02	2.567059934847854829e-05
5.301240065842558806e+02	2.309178548092919047e-05
5.301250066488074708e+02	2.051297161374933213e-05
5.301260067133589473e+02	1.793415774615539666e-05
5.301270067779105375e+02	1.535534387901758504e-05
5.301280068424620140e+02	1.277653001162498422e-05
5.301290069070136042e+02	1.019771614411763245e-05
5.301300069715650807e+02	7.618902276903399828e-06
5.301310070361166709e+02	5.040088409332905145e-06
5.301320071006681474e+02	2.461274542087403028e-06
5.301330071652197375e+02	-1.175393254351251848e-07
5.301340072297712140e+02	-2.696353192652183777e-06
5.301350072943226905e+02	-5.275167060202064219e-06
5.301360073588742807e+02	-7.853980927381979304e-06
5.301370074234257572e+02	-1.043279479497575045e-05
5.301380074879773474e+02	-1.301160866209983844e-05
5.301390075525288239e+02	-1.559042252948684716e-05
5.301400076170804141e+02	-1.816923639690174358e-05
5.301410076816318906e+02	-2.072462798407162133e-05
5.301420077461834808e+02	-2.295488892661023565e-05
5.301430078107349573e+02	-2.532322657561730196e-05
5.301440078752865475e+02	-2.770057995060744107e-05
5.301450079398380240e+02	-3.020437110606745350e-05
5.301460080043895005e+02	-3.270816226185015499e-05
5.301470080689410906e+02	-3.521195341722154745e-05
5.301480081334925671e+02	-3.771574457306484568e-05
5.301490081980441573e+02	-4.021953572838114034e-05
5.301500082625956338e+02	-4.272332688401757279e-05
5.301510083271472240e+02	-4.522711803962438620e-05
5.301520083916987005e+02	-4.773090919516407394e-05
5.301530084562502907e+02	-5.023470035092707345e-05
5.301540085208017672e+02	-5.273849150637990982e-05
5.301550085853533574e+02	-5.524228266214258406e-05
5.301560086499048339e+02	-5.774607381760273202e-05
5.301570087144563104e+02	-6.024986497338309232e-05
5.301580087790079006e+02	-6.275365612877730045e-05
5.301590088435593771e+02	-6.525744728462050382e-05
5.301600089081109672e+02	-6.776123843993678492e-05
5.301610089726624437e+02	-7.026502959555890591e-05
5.301620090372140339e+02	-7.276882075119228905e-05
5.301630091017655104e+02	-7.527261190671961011e-05
5.301640091663171006e+02	-7.777640306248231146e-05
5.301650092308685771e+02	-8.028019421793555440e-05
5.301660092954201673e+02	-8.278398537369818799e-05
5.301670093599716438e+02	-8.528777652918288635e-05
5.301680094245231203e+02	-8.779156768492756284e-05
5.301690094890747105e+02	-9.029535884031240618e-05
5.301700095536261870e+02	-9.279914999615558244e-05
5.301710096181777772e+02	-9.530294115147175513e-05
5.301720096827292537e+02	-9.780673230709096232e-05
5.301730097472808438e+02	-1.003105234627476287e-04
5.301740098118323203e+02	-1.028143146182748549e-04
5.301750098763839105e+02	-1.053181057740376647e-04
5.301760099409353870e+02	-1.078471339087431021e-04
5.301770100054869772e+02	-1.105254252839021868e-04
5.301780100700384537e+02	-1.124022389832869483e-04
5.301790101345899302e+02	-1.142790526830617380e-04
5.301800101991415204e+02	-1.161558663823468343e-04
5.301810102636929969e+02	-1.180326800822203000e-04
5.301820103282445871e+02	-1.199094937814363597e-04
5.301830103927960636e+02	-1.217863074810892173e-04
5.301840104573476538e+02	-1.236631211806222435e-04
5.301850105218991303e+02	-1.255399348801547411e-04
5.301860105864507204e+02	-1.274167485799418094e-04
5.301870106510021969e+02	-1.292935622792934622e-04
5.301880107155537871e+02	-1.311703759791102105e-04
5.301890107801052636e+02	-1.330471896784949585e-04
5.301900108446567401e+02	-1.349240033782700193e-04
5.301910109092083303e+02	-1.368008170775546141e-04
5.301920109737598068e+02	-1.386776307774284186e-04
5.301930110383113970e+02	-1.405544444766444105e-04
5.301940111028628735e+02	-1.424312581762975799e-04
5.301950111674144637e+02	-1.443080718758303757e-04
5.301960112319659402e+02	-1.461848855753625481e-04
5.301970112965175304e+02	-1.480616992751517035e-04
5.301980113610690069e+02	-1.499385129745050909e-04
5.301990114256205970e+02	-1.518153266742979326e-04
5.302000114901720735e+02	-1.536921403736926553e-04
5.302010115547235500e+02	-1.555689540734560338e-04
5.302020116192751402e+02	-1.574457677727627734e-04
5.302030116838266167e+02	-1.593225814726364966e-04
5.302040117483782069e+02	-1.611993951718527053e-04
5.302050118129296834e+02	-1.630762088715054681e-04
5.302060118774812736e+02	-1.649530225709988803e-04
5.302070119420327501e+02	-1.668298362706199030e-04
5.302080120065843403e+02	-1.687066499703599170e-04
5.302090120711358168e+02	-1.705834636697130063e-04
5.302100121356874070e+02	-1.724602773695060919e-04
5.302110122002388835e+02	-1.743370910689007874e-04
5.302120122647903599e+02	-1.762139047686659278e-04
5.302130123293419501e+02	-1.780866722709834721e-04
5.302140123938934266e+02	-1.798345030362113453e-04
5.302150124584450168e+02	-1.815823338008317671e-04
5.302160125229964933e+02	-1.833301645657614304e-04
5.302170125875480835e+02	-1.849434642501906665e-04
5.302180126520995600e+02	-1.856439468936163701e-04
5.302190127166511502e+02	-1.863444295370565750e-04
5.302200127812026267e+02	-1.870449121802293885e-04
5.302210128457542169e+02	-1.877453948237085433e-04
5.302220129103056934e+02	-1.884458774669225565e-04
5.302230129748572836e+02	-1.891463601103851502e-04
5.302240130394087601e+02	-1.898468427534574852e-04
5.302250131039602365e+02	-1.905473253970370372e-04
5.302260131685118267e+02	-1.912478080401281289e-04
5.302270132330633032e+02	-1.919482906834310467e-04
5.302280132976148934e+02	-1.926487733267245590e-04
5.302290133621663699e+02	-1.933492559701500729e-04
5.302300134267179601e+02	-1.940497386135906573e-04
5.302310134912694366e+02	-1.947502212567600013e-04
5.302320135558210268e+02	-1.954507039002625749e-04
5.302330136203725033e+02	-1.961511865434767778e-04
5.302340136849240935e+02	-1.968516691869072520e-04
5.302350137494755700e+02	-1.975521518300935096e-04
5.302360138140270465e+02	-1.982526344735921259e-04
5.302370138785786366e+02	-1.989531171166834887e-04
5.302380139431301131e+02	-1.988483207721296743e-04
5.302390140076817033e+02	-1.955894937609220692e-04
5.302400140722331798e+02	-1.923306667502969788e-04
5.302410141367847700e+02	-1.890718397392366626e-04
5.302420142013362465e+02	-1.858130127283583568e-04
5.302430142658878367e+02	-1.825541857173366381e-04
5.302440143304393132e+02	-1.792953587065000470e-04
5.302450143949909034e+02	-1.760365316954298103e-04
5.302460144595423799e+02	-1.727777046845621026e-04
5.302470145240938564e+02	-1.695188776735835081e-04
5.302480145886454466e+02	-1.662600506626240498e-04
5.302490146531969231e+02	-1.630012236518749537e-04
5.302500147177485132e+02	-1.597423966406675113e-04
5.302510147822999897e+02	-1.564835696300422854e-04
5.302520148468515799e+02	-1.532247426189713168e-04
5.302530149114030564e+02	-1.499659156081038531e-04
5.302540149759546466e+02	-1.467070885970819447e-04
5.302550150405061231e+02	-1.434482615862454078e-04
5.302560151050577133e+02	-1.401894345751750898e-04
5.302570151696091898e+02	-1.369306075643103365e-04
5.302580152341606663e+02	-1.336717805533082419e-04
5.302590152987122565e+02	-1.304129535423488378e-04
5.302600153632637330e+02	-1.271541265314054528e-04
5.302610154278153232e+02	-1.238952995204127094e-04
5.302620154923667997e+02	-1.206364725097878088e-04
5.302630155569183898e+02	-1.173776454987168945e-04
5.302640156214698663e+02	-1.141188184878490919e-04
5.302650156860214565e+02	-1.108599914768273190e-04
5.302660157505729330e+02	-1.076011644659490810e-04
5.302670158151245232e+02	-1.043423374549269693e-04
5.302680158796759997e+02	-1.010835104440556702e-04
5.302690159442274762e+02	-9.782468343305352138e-05
5.302700160087790664e+02	-9.456585642209399528e-05
5.302710160733305429e+02	-9.130702941115260247e-05
5.302720161378821331e+02	-8.804820240013756523e-05
5.302730162024336096e+02	-8.478937538952871077e-05
5.302740162669851998e+02	-8.153054837836573414e-05
5.302750163315366763e+02	-7.827172136757205032e-05
5.302760163960882664e+02	-7.501289435657262558e-05
5.302770164606397429e+02	-7.175406734569418426e-05
5.302780165251913331e+02	-6.849524033467250628e-05
5.302790165897428096e+02	-6.523641332380074635e-05
5.302800166542942861e+02	-6.197758631279873308e-05
5.302810167188458763e+02	-5.871875930183933573e-05
5.302820167833973528e+02	-5.545993229089809200e-05
5.302830168479489430e+02	-5.220110527988282436e-05
5.302840169125004195e+02	-4.894227826927404444e-05
5.302850169770520097e+02	-4.568345125811130498e-05
5.302860170416034862e+02	-4.242462424731926779e-05
5.302870171061550764e+02	-3.916579723629730521e-05
5.302880171707065529e+02	-3.590697022541940598e-05
5.302890172352581430e+02	-3.264814321439728754e-05
5.302900172998096195e+02	-2.938931620354910901e-05
5.302910173643610960e+02	-2.613048919253110037e-05
5.302920174289126862e+02	-2.287166218158485237e-05
5.302930174934641627e+02	-1.960898166958118414e-05
5.302940175580157529e+02	-1.629122043827618420e-05
5.302950176225672294e+02	-1.297345920739995403e-05
5.302960176871188196e+02	-9.655697975842184218e-06
5.302970177516702961e+02	-6.337936744856033739e-06
5.302980178162218863e+02	-3.020175513550579368e-06
5.302990178807733628e+02	2.975857176175483038e-07
5.303000179453249530e+02	3.615346948922675508e-06
5.303010180098764295e+02	6.933108180059283179e-06
5.303020180744279060e+02	1.025086941138234101e-05
5.303030181389794961e+02	1.356863064261906671e-05
5.303040182035309726e+02	1.688639187384360698e-05
5.303050182680825628e+02	2.020415310515204926e-05
5.303060183326340393e+02	2.352191433600487252e-05
5.303070183971856295e+02	2.683967556756230183e-05
5.303080184617371060e+02	3.015743679854881738e-05
5.303090185262886962e+02	3.347519802985417985e-05
5.303100185908401727e+02	3.679295926102214679e-05
5.303110186553917629e+02	4.011072049232745505e-05
5.303120187199432394e+02	4.342848172346396658e-05
5.303130187844947159e+02	4.674624295478738779e-05
5.303140188490463061e+02	5.020948213442752878e-05
5.303150189135977826e+02	5.443239080079112502e-05
5.303160189781493727e+02	5.865529946723466761e-05
5.303170190427008492e+02	6.287820813335269206e-05
5.303180191072524394e+02	6.710111680004854882e-05
5.303190191718039159e+02	7.132402546628684517e-05
5.303200192363555061e+02	7.554693413272360472e-05
5.303210193009069826e+02	7.976984279910932546e-05
5.303220193654585728e+02	8.399275146555330851e-05
5.303230194300100493e+02	8.821566013192128899e-05
5.303240194945615258e+02	9.243856879839312249e-05
5.303250195591131160e+02	9.666147746487114948e-05
5.303260196236645925e+02	1.008843861312346983e-04
5.303270196882161827e+02	1.051072947976783019e-04
5.303280197527676592e+02	1.093302034637962924e-04
5.303290198173192493e+02	1.135531121304919053e-04
5.303300198818707258e+02	1.177760207967307301e-04
5.303310199464223160e+02	1.219989294631638170e-04
5.303320200109737925e+02	1.262218381295735663e-04
5.303330200755253827e+02	1.304447467960171293e-04
5.303340201400768592e+02	1.346676554623869664e-04
5.303350202046283357e+02	1.388905641288366822e-04
5.303360202691799259e+02	1.431134727953349160e-04
5.303370203337314024e+02	1.473363814616778650e-04
5.303380203982829926e+02	1.515262753717705241e-04
5.303390204628344691e+02	1.554084238027806839e-04
5.303400205273860593e+02	1.592905722344470300e-04
5.303410205919375358e+02	1.631727206654887943e-04
5.303420206564891259e+02	1.670548690969020063e-04
5.303430207210406024e+02	1.709370175282032744e-04
5.303440207855921926e+02	1.748191659595778075e-04
5.303450208501436691e+02	1.787013143908374694e-04
5.303460209146952593e+02	1.825834628222289160e-04
5.303470209792467358e+02	1.864656112536690433e-04
5.303480210437982123e+02	1.903477596849044733e-04
5.303490211083498025e+02	1.942299081163284459e-04
5.303500211729012790e+02	1.981120565472683224e-04
5.303510212374528692e+02	2.019942049789346956e-04
5.303520213020043457e+02	2.058763534099764057e-04
5.303530213665559359e+02	2.097585018413890756e-04
5.303540214311074124e+02	2.136406502726907774e-04
5.303550214956590025e+02	2.175227987040655544e-04
5.303560215602104790e+02	2.214049471353252976e-04
5.303570216247620692e+02	2.252870955667485113e-04
5.303580216893135457e+02	2.291692439980756648e-04
5.303590217538650222e+02	2.330513924293911088e-04
5.303600218184166124e+02	2.369335408608127776e-04
5.303610218829680889e+02	2.408156892918757652e-04
5.303620219475196791e+02	2.446978377234427442e-04
5.303630220120711556e+02	2.485799861544844814e-04
5.303640220766227458e+02	2.524621345859004310e-04
5.303650221411742223e+02	2.563442830171784158e-04
5.303660222057258125e+02	2.602264314485530573e-04
5.303670222702772890e+02	2.641085798798126650e-04
5.303680223348288791e+02	2.679907283112359872e-04
5.303690223993803556e+02	2.718728767425626527e-04
5.303700224639318321e+02	2.757550251738786389e-04
5.303710225284834223e+02	2.796371736053001721e-04
5.303720225930348988e+02	2.835193220363633223e-04
5.303730226575864890e+02	2.866730584049315372e-04
5.303740227221379655e+02	2.870940826361988813e-04
5.303750227866895557e+02	2.875151068674437283e-04
5.303760228512410322e+02	2.879361310989707930e-04
5.303770229157926224e+02	2.883571553301768255e-04
5.303780229803440989e+02	2.887781795616625280e-04
5.303790230448956891e+02	2.891992037929204938e-04
5.303800231094471656e+02	2.896202280244486427e-04
5.303810231739986421e+02	2.900412522555966704e-04
5.303820232385502322e+02	2.904622764872436479e-04
5.303830233031017087e+02	2.908833007183308519e-04
5.303840233676532989e+02	2.913043249499307208e-04
5.303850234322047754e+02	2.917253491811980107e-04
5.303860234967563656e+02	2.921463734124597170e-04
5.303870235613078421e+02	2.925673976439694345e-04
5.303880236258594323e+02	2.929884218751759549e-04
5.303890236904109088e+02	2.934094461066616573e-04
5.303900237549624990e+02	2.938304703379161537e-04
5.303910238195139755e+02	2.942514945694685346e-04
5.303920238840654520e+02	2.946725188006165080e-04
5.303930239486170422e+02	2.950935430322648950e-04
5.303940240131685186e+02	2.955145672633538879e-04
5.303950240777201088e+02	2.959355914949298502e-04
5.303960241422715853e+02	2.963566157261808228e-04
5.303970242068231755e+02	2.967776399575349031e-04
5.303980242713746520e+02	2.971986641889690518e-04
5.303990243359262422e+02	2.976196884201754095e-04
5.304000244004777187e+02	2.980407126517023659e-04
5.304010244650293089e+02	2.984617368829083984e-04
5.304020245295807854e+02	2.988827611144677723e-04
5.304030245941322619e+02	2.993037853456155832e-04
5.304040246586838521e+02	2.997248095772628317e-04
5.304050247232353286e+02	3.001458338083496020e-04
5.304060247877869188e+02	3.005668580399495251e-04
5.304070248523383952e+02	3.009878822712006062e-04
5.304080249168899854e+02	3.014089065025560418e-04
5.304090249814414619e+02	3.018299307339681811e-04
5.304100250459930521e+02	3.022509549651745931e-04
5.304110251105445286e+02	3.026719791967016036e-04
5.304120251750961188e+02	3.030930034279077988e-04
5.304130252396475953e+02	3.035140276594669017e-04
5.304140253041990718e+02	3.039350518906147667e-04
5.304150253687506620e+02	3.043560761222616358e-04
5.304160254333021385e+02	3.047771003533488940e-04
5.304170254978537287e+02	3.051981245849486545e-04
