# Photon E [eV]	StS norm sum
5.300520000000000209e+02	4.156402587731307971e-04
5.300530000646141389e+02	4.176715654599701274e-04
5.300540001292282568e+02	4.197028721468068014e-04
5.300550001938422611e+02	4.217341788335754417e-04
5.300560002584563790e+02	4.237654855202120261e-04
5.300570003230704970e+02	4.257967922070444175e-04
5.300580003876846149e+02	4.278280988938565343e-04
5.300590004522986192e+02	4.298594055807704035e-04
5.300600005169127371e+02	4.318907122673474111e-04
5.300610005815268551e+02	4.339220189540773996e-04
5.300620006461409730e+02	4.359533256409347276e-04
5.300630007107550909e+02	4.379846323277781237e-04
5.300640007753690952e+02	4.400159390144321638e-04
5.300650008399832132e+02	4.420472457011459435e-04
5.300660009045973311e+02	4.440785523880093973e-04
5.300670009692114490e+02	4.460955969804018839e-04
5.300680010338254533e+02	4.476532093192945954e-04
5.300690010984395713e+02	4.492108216578679009e-04
5.300700011630536892e+02	4.507684339966507828e-04
5.300710012276678071e+02	4.523260463354597397e-04
5.300720012922818114e+02	4.538836586743026863e-04
5.300730013568959293e+02	4.554412710129204442e-04
5.300740014215100473e+02	4.569988833516476522e-04
5.300750014861241652e+02	4.585564956904867500e-04
5.300760015507382832e+02	4.601141080292733723e-04
5.300770016153522874e+02	4.616717203681489534e-04
5.300780016799664054e+02	4.632293327067177053e-04
5.300790017445805233e+02	4.647869450455288849e-04
5.300800018091946413e+02	4.663445573843198440e-04
5.300810018738086455e+02	4.679021697231586707e-04
5.300820019384227635e+02	4.694597820617939926e-04
5.300830020030368814e+02	4.710173944005299285e-04
5.300840020676509994e+02	4.725750067393593226e-04
5.300850021322651173e+02	4.741326190781462160e-04
5.300860021968791216e+02	4.756902314169214000e-04
5.300870022614932395e+02	4.772478437555785144e-04
5.300880023261073575e+02	4.788054560943895855e-04
5.300890023907214754e+02	4.803630684331802194e-04
5.300900024553354797e+02	4.819206807720725514e-04
5.300910025199495976e+02	4.834782931106398397e-04
5.300920025845637156e+02	4.850359054494023927e-04
5.300930026491778335e+02	4.865935177882375873e-04
5.300940027137919515e+02	4.881511301270347806e-04
5.300950027784059557e+02	4.897087424657819380e-04
5.300960028430200737e+02	4.912663548044567249e-04
5.300970029076341916e+02	4.928239671432677960e-04
5.300980029722483096e+02	4.943815794820525210e-04
5.300990030368623138e+02	4.959391918209446904e-04
5.301000031014764318e+02	4.974968041595183212e-04
5.301010031660905497e+02	4.990544164982890600e-04
5.301020032307046677e+02	5.006120288370982880e-04
5.301030032953187856e+02	5.022062336824561395e-04
5.301040033599327899e+02	5.039945427703947231e-04
5.301050034245469078e+02	5.057828518584136460e-04
5.301060034891610258e+02	5.075711609465607217e-04
5.301070035537751437e+02	5.093594700346570567e-04
5.301080036183891480e+02	5.111477791228192027e-04
5.301090036830032659e+02	5.129195669385263169e-04
5.301100037476173839e+02	5.145906454131527093e-04
5.301110038122315018e+02	5.163529852662173325e-04
5.301120038768455061e+02	5.181153251193060250e-04
5.301130039414596240e+02	5.198776649722117041e-04
5.301140040060737419e+02	5.216400048251649798e-04
5.301150040706878599e+02	5.234132414719337278e-04
5.301160041353019778e+02	5.253170841712764740e-04
5.301170041999159821e+02	5.267464027229300108e-04
5.301180042645301000e+02	5.281757212743486011e-04
5.301190043291442180e+02	5.296050398259223406e-04
5.301200043937583359e+02	5.310343583775232936e-04
5.301210044583723402e+02	5.324636769291900577e-04
5.301220045229864581e+02	5.338929954806158036e-04
5.301230045876005761e+02	5.353223140321056259e-04
5.301240046522146940e+02	5.367516325837330335e-04
5.301250047168288120e+02	5.381809511353119772e-04
5.301260047814428162e+02	5.396102696868540580e-04
5.301270048460569342e+02	5.410395882383669738e-04
5.301280049106710521e+02	5.424689067899576269e-04
5.301290049752851701e+02	5.438982253415226929e-04
5.301300050398991743e+02	5.453275438931875054e-04
5.301310051045132923e+02	5.467568624446248523e-04
5.301320051691274102e+02	5.481861809961414544e-04
5.301330052337415282e+02	5.496154995477631157e-04
5.301340052983556461e+02	5.510448180993627676e-04
5.301350053629696504e+02	5.524741366508806708e-04
5.301360054275837683e+02	5.539034552023534711e-04
5.301370054921978863e+02	5.553327737539757829e-04
5.301380055568120042e+02	5.567761816227236255e-04
5.301390056214260085e+02	5.584213640896452859e-04
5.301400056860401264e+02	5.600665465563581290e-04
5.301410057506542444e+02	5.617117290231575999e-04
5.301420058152683623e+02	5.633569114900154008e-04
5.301430058798823666e+02	5.650020939568686481e-04
5.301440059444964845e+02	5.666472764235927669e-04
5.301450060091106025e+02	5.682924588903753241e-04
5.301460060737247204e+02	5.699376413572539418e-04
5.301470061383388384e+02	5.715828238241118511e-04
5.301480062029528426e+02	5.732280062910151885e-04
5.301490062675669606e+02	5.748731887577045044e-04
5.301500063321810785e+02	5.765183712245087458e-04
5.301510063967951965e+02	5.781635536913661130e-04
5.301520064614092007e+02	5.798087361582339970e-04
5.301530065260233187e+02	5.814539186250087480e-04
5.301540065906374366e+02	5.830991010917549846e-04
5.301550066552515545e+02	5.847442835586388063e-04
5.301560067198656725e+02	5.863894660254745980e-04
5.301570067844796768e+02	5.882713655487342057e-04
5.301580068490937947e+02	5.913542504722051410e-04
5.301590069137079126e+02	5.944371353957307201e-04
5.301600069783220306e+02	5.974019545120620635e-04
5.301610070429360348e+02	5.992340772651304128e-04
5.301620071075501528e+02	6.010662000181143027e-04
5.301630071721642707e+02	6.028983227710344416e-04
5.301640072367783887e+02	6.047304455242113195e-04
5.301650073013925066e+02	6.065625682772225313e-04
5.301660073660065109e+02	6.083946910302880616e-04
5.301670074306206288e+02	6.102268137832238129e-04
5.301680074952347468e+02	6.120589365362185449e-04
5.301690075598488647e+02	6.138910592892051453e-04
5.301700076244628690e+02	6.157231820422739282e-04
5.301710076890769869e+02	6.175553047954027760e-04
5.301720077536911049e+02	6.193874275483494778e-04
5.301730078183052228e+02	6.212195503013549433e-04
5.301740078829193408e+02	6.230516730543772140e-04
5.301750079475333450e+02	6.248837958074057730e-04
5.301760080121474630e+02	6.267159185603356697e-04
5.301770080767615809e+02	6.285480413133621687e-04
5.301780081413756989e+02	6.303801640664939438e-04
5.301790082059897031e+02	6.322122868195622931e-04
5.301800082706038211e+02	6.340444095725462914e-04
5.301810083352179390e+02	6.358765323255116415e-04
5.301820083998320570e+02	6.377086550785167817e-04
5.301830084644460612e+02	6.395407778315316798e-04
5.301840085290601792e+02	6.413729005845770440e-04
5.301850085936742971e+02	6.432050233376165535e-04
5.301860086582884151e+02	6.450537944965576602e-04
5.301870087229025330e+02	6.474515102261076257e-04
5.301880087875165373e+02	6.502564314208485793e-04
5.301890088521306552e+02	6.530613526154154099e-04
5.301900089167447732e+02	6.558662738100166098e-04
5.301910089813588911e+02	6.586711950046863313e-04
5.301920090459728954e+02	6.614761161995681227e-04
5.301930091105870133e+02	6.642810373941599985e-04
5.301940091752011313e+02	6.670859585886709927e-04
5.301950092398152492e+02	6.698908797833862507e-04
5.301960093044293671e+02	6.726958009780339628e-04
5.301970093690433714e+02	6.755007221727926973e-04
5.301980094336574894e+02	6.783056433674575399e-04
5.301990094982716073e+02	6.811105645620699070e-04
5.302000095628857252e+02	6.839154857567218476e-04
5.302010096274997295e+02	6.867204069514549949e-04
5.302020096921138474e+02	6.895253281460600979e-04
5.302030097567279654e+02	6.923302493405974383e-04
5.302040098213420833e+02	6.951351705352941564e-04
5.302050098859562013e+02	6.979400917301084020e-04
5.302060099505702055e+02	7.007450129247747624e-04
5.302070100151843235e+02	7.035499341192866241e-04
5.302080100797984414e+02	7.063548553139778127e-04
5.302090101444125594e+02	7.091597765086479679e-04
5.302100102090265636e+02	7.119646977033817657e-04
5.302110102736406816e+02	7.147696188979673531e-04
5.302120103382547995e+02	7.175745400926769732e-04
5.302130104028689175e+02	7.203794612873472367e-04
5.302140104674829217e+02	7.231843824820313781e-04
5.302150105320970397e+02	7.259893036766469979e-04
5.302160105967111576e+02	7.287942248712129612e-04
5.302170106613252756e+02	7.315991460659040414e-04
5.302180107259393935e+02	7.344040672605555483e-04
5.302190107905533978e+02	7.372089884554167399e-04
5.302200108551675157e+02	7.400139096499983157e-04
5.302210109197816337e+02	7.428188308445847704e-04
5.302220109843957516e+02	7.456237520392546003e-04
5.302230110490097559e+02	7.484286732339535952e-04
5.302240111136238738e+02	7.512335944286016327e-04
5.302250111782379918e+02	7.540385156231125185e-04
5.302260112428521097e+02	7.568434368179545197e-04
5.302270113074662277e+02	7.596483580126024487e-04
5.302280113720802319e+02	7.624532792073249708e-04
5.302290114366943499e+02	7.652582004018921268e-04
5.302300115013084678e+02	7.680631215965112160e-04
5.302310115659225858e+02	7.708680427911629397e-04
5.302320116305365900e+02	7.736729639858972796e-04
5.302330116951507080e+02	7.764778851806282585e-04
5.302340117597648259e+02	7.792828063751657073e-04
5.302350118243789439e+02	7.820877275698624254e-04
5.302360118889930618e+02	7.848926487645385437e-04
5.302370119536070661e+02	7.876975699592878456e-04
5.302380120182211840e+02	7.905024911538071882e-04
5.302390120828353020e+02	7.933074123484191217e-04
5.302400121474494199e+02	7.961123335432163453e-04
5.302410122120634242e+02	7.989172547379502515e-04
5.302420122766775421e+02	8.017221759325360558e-04
5.302430123412916601e+02	8.045270971270738298e-04
5.302440124059057780e+02	8.073320183217894130e-04
5.302450124705198959e+02	8.101369395164579419e-04
5.302460125351339002e+02	8.129418607110888489e-04
5.302470125997480181e+02	8.157467819057813386e-04
5.302480126643621361e+02	8.185517031004720936e-04
5.302490127289762540e+02	8.213566242951241426e-04
5.302500127935902583e+02	8.241615454898576151e-04
5.302510128582043762e+02	8.269664666844628266e-04
5.302520129228184942e+02	8.297713878790267299e-04
5.302530129874326121e+02	8.325763090736965598e-04
5.302540130520466164e+02	8.353812302685224064e-04
5.302550131166607343e+02	8.381861514631699017e-04
5.302560131812748523e+02	8.409910726576811128e-04
5.302570132458889702e+02	8.437959938523778309e-04
5.302580133105030882e+02	8.466009150470441913e-04
5.302590133751170924e+02	8.494058362417663882e-04
5.302600134397312104e+02	8.522107574363337610e-04
5.302610135043453283e+02	8.550156786310799187e-04
5.302620135689594463e+02	8.578205998257499654e-04
5.302630136335734505e+02	8.606255210204857148e-04
5.302640136981875685e+02	8.634304422150779158e-04
5.302650137628016864e+02	8.662353634096074499e-04
5.302660138274158044e+02	8.690402846043041680e-04
5.302670138920299223e+02	8.718452057989519886e-04
5.302680139566439266e+02	8.746501269938562230e-04
5.302690140212580445e+02	8.774550481883756740e-04
5.302700140858721625e+02	8.802599693829878244e-04
5.302710141504862804e+02	8.830280273138764241e-04
5.302720142151002847e+02	8.851793694140181910e-04
5.302730142797144026e+02	8.863290278387241008e-04
5.302740143443285206e+02	8.874786862634372747e-04
5.302750144089426385e+02	8.886283446883337872e-04
5.302760144735567565e+02	8.897780031130633326e-04
5.302770145381707607e+02	8.909276615379148508e-04
5.302780146027848787e+02	8.920773199626279163e-04
5.302790146673989966e+02	8.932269783872939274e-04
5.302800147320131146e+02	8.943766368119997288e-04
5.302810147966271188e+02	8.955262952367868453e-04
5.302820148612412368e+02	8.966759536616395561e-04
5.302830149258553547e+02	8.978256120863790761e-04
5.302840149904694727e+02	8.989752705111028752e-04
5.302850150550835906e+02	9.001249289358442384e-04
5.302860151196975949e+02	9.012745873605957931e-04
5.302870151843117128e+02	9.024242457853187249e-04
5.302880152489258307e+02	9.035739042100634491e-04
5.302890153135399487e+02	9.047235626349145335e-04
5.302900153781539530e+02	9.058732210597515233e-04
5.302910154427680709e+02	9.070228794845080654e-04
5.302920155073821888e+02	9.081725379091669208e-04
5.302930155719963068e+02	9.093221963338911536e-04
5.302940156366103110e+02	9.104718547586250358e-04
5.302950157012244290e+02	9.116215131833935040e-04
5.302960157658385469e+02	9.127711716082253981e-04
5.302970158304526649e+02	9.134794583475119899e-04
5.302980158950667828e+02	9.120900636939914367e-04
5.302990159596807871e+02	9.107006690406299360e-04
5.303000160242949050e+02	9.093112743871506910e-04
5.303010160889090230e+02	9.079218797335823245e-04
5.303020161535231409e+02	9.065324850800651323e-04
5.303030162181371452e+02	9.051430904264871164e-04
5.303040162827512631e+02	9.037536957729976799e-04
5.303050163473653811e+02	9.023462056267252248e-04
5.303060164119794990e+02	9.007765936304867231e-04
5.303070164765936170e+02	8.993171389524732889e-04
5.303080165412076212e+02	8.978576842745449645e-04
5.303090166058217392e+02	8.963982295964742844e-04
5.303100166704358571e+02	8.949387749182313246e-04
5.303110167350499751e+02	8.934793202401933873e-04
5.303120167996639793e+02	8.920198655622017456e-04
5.303130168642780973e+02	8.905604108841609894e-04
5.303140169288922152e+02	8.891009562061084155e-04
5.303150169935063332e+02	8.876415015280931381e-04
5.303160170581204511e+02	8.861820468499301924e-04
5.303170171227344554e+02	8.847225921719012540e-04
5.303180171873485733e+02	8.832631374938581127e-04
5.303190172519626913e+02	8.818036828158379564e-04
5.303200173165768092e+02	8.803442281378181253e-04
5.303210173811908135e+02	8.788847734598260499e-04
5.303220174458049314e+02	8.774253187817671875e-04
5.303230175104190494e+02	8.759658641035979534e-04
5.303240175750331673e+02	8.745064094255566552e-04
5.303250176396471716e+02	8.730469547475509188e-04
5.303260177042612895e+02	8.715875000695071269e-04
5.303270177688754075e+02	8.701280453914752612e-04
5.303280178334895254e+02	8.686685907134625859e-04
5.303290178981036433e+02	8.672091360354245403e-04
5.303300179627176476e+02	8.657496813573384645e-04
5.303310180273317656e+02	8.642902266793151640e-04
5.303320180919458835e+02	8.628307720012045852e-04
5.303330181565600014e+02	8.613713173231627449e-04
5.303340182211740057e+02	8.599118626452274816e-04
5.303350182857881236e+02	8.584524079671607046e-04
5.303360183504022416e+02	8.569929532890816761e-04
5.303370184150163595e+02	8.555334986109230672e-04
5.303380184796304775e+02	8.540740439328807932e-04
5.303390185442444817e+02	8.526145892549808749e-04
5.303400186088585997e+02	8.511551345769100864e-04
5.303410186734727176e+02	8.496956798988293232e-04
5.303420187380868356e+02	8.482362252207912776e-04
5.303430188027008398e+02	8.467767705427994189e-04
5.303440188673149578e+02	8.453173158645971167e-04
5.303450189319290757e+02	8.438578611865446511e-04
5.303460189965431937e+02	8.423984065085292653e-04
5.303470190611573116e+02	8.409389518305157227e-04
5.303480191257713159e+02	8.394794971526063718e-04
5.303490191903854338e+02	8.380200424745351496e-04
5.303500192549995518e+02	8.366163662584891279e-04
5.303510193196136697e+02	8.355973764508522507e-04
5.303520193842276740e+02	8.345783866434056510e-04
5.303530194488417919e+02	8.335520727834513487e-04
5.303540195134559099e+02	8.324265948715074562e-04
5.303550195780700278e+02	8.309811837999229317e-04
5.303560196426841458e+02	8.295357727283792816e-04
5.303570197072981500e+02	8.280903616567851077e-04
5.303580197719122680e+02	8.266449505850325319e-04
5.303590198365263859e+02	8.251995395133956404e-04
5.303600199011405039e+02	8.237541284417963707e-04
5.303610199657545081e+02	8.223087173703304579e-04
5.303620200303686261e+02	8.208633062987742311e-04
5.303630200949827440e+02	8.194178952270323888e-04
5.303640201595968620e+02	8.179724841554297582e-04
5.303650202242108662e+02	8.165270730837534017e-04
5.303660202888249842e+02	8.150816620121763582e-04
5.303670203534391021e+02	8.136362509405305763e-04
5.303680204180532201e+02	8.121731399476742356e-04
5.303690204826673380e+02	8.101398522002998875e-04
5.303700205472813423e+02	8.081065644529701001e-04
5.303710206118954602e+02	8.060732767056199297e-04
5.303720206765095782e+02	8.040399889579221641e-04
5.303730207411236961e+02	8.020067012104915459e-04
5.303740208057377004e+02	7.999734134631869120e-04
5.303750208703518183e+02	7.979401257157925061e-04
5.303760209349659362e+02	7.959068379683382523e-04
5.303770209995800542e+02	7.938735502208843237e-04
5.303780210641941721e+02	7.918402624735201671e-04
5.303790211288081764e+02	7.898069747260545292e-04
5.303800211934222943e+02	7.877736869786566539e-04
5.303810212580364123e+02	7.857403992311132786e-04
5.303820213226505302e+02	7.837071114836862383e-04
5.303830213872645345e+02	7.816738237363623056e-04
5.303840214518786524e+02	7.795590607764944953e-04
5.303850215164927704e+02	7.771020389559227986e-04
5.303860215811068883e+02	7.746450171352013735e-04
5.303870216457210063e+02	7.721879953147050288e-04
5.303880217103350105e+02	7.697309734942254893e-04
5.303890217749491285e+02	7.672739516737306625e-04
5.303900218395632464e+02	7.648169298531414017e-04
5.303910219041773644e+02	7.623599080325897627e-04
5.303920219687913686e+02	7.599028862121227999e-04
5.303930220334054866e+02	7.574458643915164087e-04
5.303940220980196045e+02	7.549888425709224858e-04
5.303950221626337225e+02	7.525318207503673773e-04
5.303960222272477267e+02	7.500747989299045345e-04
5.303970222918618447e+02	7.476177771094099245e-04
5.303980223564759626e+02	7.451607552888966663e-04
5.303990224210900806e+02	7.427037334683070802e-04
5.304000224857041985e+02	7.402467116476124350e-04
5.304010225503182028e+02	7.377896898271941529e-04
5.304020226149323207e+02	7.353326680067674139e-04
5.304030226795464387e+02	7.328756461861064874e-04
5.304040227441605566e+02	7.304186243655512705e-04
5.304050228087745609e+02	7.279616025450665268e-04
5.304060228733886788e+02	7.255045807246034671e-04
5.304070229380027968e+02	7.230475589039108818e-04
5.304080230026169147e+02	7.205905370833322462e-04
5.304090230672310327e+02	7.181335152628150848e-04
5.304100231318450369e+02	7.156764934424150173e-04
5.304110231964591549e+02	7.132194716219403567e-04
5.304120232610732728e+02	7.107624498012725996e-04
5.304130233256873908e+02	7.083054279807207438e-04
5.304140233903013950e+02	7.058484061601101242e-04
5.304150234549155130e+02	7.033913843396481487e-04
5.304160235195296309e+02	7.009343625190767773e-04
5.304170235841437488e+02	6.984692726244816482e-04
5.304180236487578668e+02	6.958917372794630896e-04
5.304190237133718711e+02	6.934308526658651941e-04
5.304200237779859890e+02	6.909699680522108116e-04
5.304210238426001069e+02	6.885090834382337705e-04
5.304220239072142249e+02	6.860481988245162874e-04
5.304230239718282292e+02	6.835873142108979004e-04
5.304240240364423471e+02	6.811264295972744177e-04
5.304250241010564650e+02	6.786655449835137834e-04
5.304260241656705830e+02	6.762046603697932645e-04
5.304270242302847009e+02	6.737437757561309673e-04
5.304280242948987052e+02	6.712828911423568889e-04
5.304290243595128231e+02	6.688220065286641257e-04
5.304300244241269411e+02	6.663611219149088039e-04
5.304310244887410590e+02	6.639002373012098607e-04
5.304320245533550633e+02	6.614393526875919074e-04
5.304330246179691812e+02	6.589784680739494511e-04
5.304340246825832992e+02	6.565175834601890336e-04
5.304350247471974171e+02	6.540566988463251833e-04
5.304360248118114214e+02	6.515958142326890154e-04
5.304370248764255393e+02	6.493846239179253826e-04
5.304380249410396573e+02	6.482880635832401379e-04
5.304390250056537752e+02	6.471915032485077305e-04
5.304400250702678932e+02	6.460949429138357130e-04
5.304410251348818974e+02	6.449983825792531423e-04
5.304420251994960154e+02	6.439018222446575611e-04
5.304430252641101333e+02	6.428052619098237807e-04
5.304440253287242513e+02	6.417087015751141415e-04
5.304450253933382555e+02	6.406121412405637715e-04
5.304460254579523735e+02	6.395155809058766837e-04
5.304470255225664914e+02	6.384190205711726823e-04
5.304480255871806094e+02	6.373224602364516590e-04
5.304490256517947273e+02	6.362258999018083729e-04
5.304500257164087316e+02	6.351293395672215738e-04
